# === DATA DESCRIPTION FILE ======================================================
#
# CAUTION - Investigational device.
# Limited by Federal Law to investigational use.
#
# Dataset name: Caskey_10505NHP_37_01_10.41.55_(WIP_TempSag_CLEAR) (convert_dicom_to_xmlrec.pl v0.4)
#
# CLINICAL TRYOUT             Research image export tool     V4.2
#
# === GENERAL INFORMATION ========================================================
#
.    Patient name                       :   Caskey_10505NHP
.    Examination name                   :   HifuCav20160811
.    Protocol name                      :   WIP TempSag CLEAR
.    Examination date/time              :   2016.08.10 / 08:21:56
.    Series Type                        :   Image   MRSERIES
.    Acquisition nr                     :   37
.    Reconstruction nr                  :   1
.    Scan Duration [sec]                :   34.2
.    Max. number of cardiac phases      :   1
.    Max. number of echoes              :   1
.    Max. number of slices/locations    :   6
.    Max. number of dynamics            :   21
.    Max. number of mixes               :   1
.    Patient position                   :   HeadFirstSupine
.    Preparation direction              :   Feet-Head
.    Technique                          :   FEEPI
.    Scan resolution  (x, y)            :   96  97
.    Scan mode                          :   MS
.    Repetition time [ms]               :   24.366  
.    FOV (ap,fh,rl) [mm]                :   241.970  191.559  18.000
.    Water Fat shift [pixels]           :   5.500
.    Angulation midslice(ap,fh,rl)[degr]:   0.000  -0.000  0.001
.    Off Centre midslice(ap,fh,rl) [mm] :   23.711  -0.644  -7.082
.    Flow compensation <0=no 1=yes> ?   :   0
.    Presaturation     <0=no 1=yes> ?   :   0
.    Phase encoding velocity [cm/sec]   :   0.000000  0.000000  0.000000
.    MTC               <0=no 1=yes> ?   :   0
.    SPIR              <0=no 1=yes> ?   :   0
.    EPI factor        <0,1=no EPI>     :   11
.    Dynamic scan      <0=no 1=yes> ?   :   1
.    Diffusion         <0=no 1=yes> ?   :   0
.    Diffusion echo time [ms]           :   0.0000
.    Max. number of diffusion values    :   1
.    Max. number of gradient orients    :   1
.    Number of label types   <0=no ASL> :   0
#
# === PIXEL VALUES =============================================================
#  PV = pixel value in REC file, FP = floating point value, DV = displayed value on console
#  RS = rescale slope,           RI = rescale intercept,    SS = scale slope
#  DV = PV * RS + RI             FP = DV / (RS * SS)
#
# === IMAGE INFORMATION DEFINITION =============================================
#  The rest of this file contains ONE line per image, this line contains the following information:
#
#  slice number                             (integer)
#  echo number                              (integer)
#  dynamic scan number                      (integer)
#  cardiac phase number                     (integer)
#  image_type_mr                            (integer)
#  scanning sequence                        (integer)
#  index in REC file (in images)            (integer)
#  image pixel size (in bits)               (integer)
#  scan percentage                          (integer)
#  recon resolution (x y)                   (2*integer)
#  rescale intercept                        (float)
#  rescale slope                            (float)
#  scale slope                              (float)
#  window center                            (integer)
#  window width                             (integer)
#  image angulation (ap,fh,rl in degrees )  (3*float)
#  image offcentre (ap,fh,rl in mm )        (3*float)
#  slice thickness (in mm )                 (float)
#  slice gap (in mm )                       (float)
#  image_display_orientation                (integer)
#  slice orientation ( TRA/SAG/COR )        (integer)
#  fmri_status_indication                   (integer)
#  image_type_ed_es  (end diast/end syst)   (integer)
#  pixel spacing (x,y) (in mm)              (2*float)
#  echo_time                                (float)
#  dyn_scan_begin_time                      (float)
#  trigger_time                             (float)
#  diffusion_b_factor                       (float)
#  number of averages                       (integer)
#  image_flip_angle (in degrees)            (float)
#  cardiac frequency   (bpm)                (integer)
#  minimum RR-interval (in ms)              (integer)
#  maximum RR-interval (in ms)              (integer)
#  TURBO factor  <0=no turbo>               (integer)
#  Inversion delay (in ms)                  (float)
#  diffusion b value number    (imagekey!)  (integer)
#  gradient orientation number (imagekey!)  (integer)
#  contrast type                            (string)
#  diffusion anisotropy type                (string)
#  diffusion (ap, fh, rl)                   (3*float)
#  label type (ASL)            (imagekey!)  (integer)
#
# === IMAGE INFORMATION ==========================================================
#  sl ec  dyn ph ty    idx pix scan% rec size                (re)scale              window        angulation              offcentre        thick   gap   info      spacing     echo     dtime   ttime    diff  avg  flip    freq   RR-int  turbo delay b grad cont anis         diffusion       L.ty

  1   1    1  1 0 2     0  16   101  160  160     0.00000   1.90061 2.57778e-03  1070  1860   0.00  -0.00   0.00   23.71   -0.64    0.42 3.000 0.000 0 2 0 2  1.512  1.512  16.00    0.00     0.00    0.00   1   18.00     0    0    0    11   0.0  1   1    7    0   0.000    0.000    0.000  1
  2   1    1  1 0 2     1  16   101  160  160     0.00000   1.90061 2.57778e-03  1072  1864   0.00  -0.00   0.00   23.71   -0.64   -2.58 3.000 0.000 0 2 0 2  1.512  1.512  16.00    0.00     0.00    0.00   1   18.00     0    0    0    11   0.0  1   1    7    0   0.000    0.000    0.000  1
  3   1    1  1 0 2     2  16   101  160  160     0.00000   1.90061 2.57778e-03  1364  2370   0.00  -0.00   0.00   23.71   -0.64   -5.58 3.000 0.000 0 2 0 2  1.512  1.512  16.00    0.00     0.00    0.00   1   18.00     0    0    0    11   0.0  1   1    7    0   0.000    0.000    0.000  1
  4   1    1  1 0 2     3  16   101  160  160     0.00000   1.90061 2.57778e-03  1562  2715   0.00  -0.00   0.00   23.71   -0.64   -8.58 3.000 0.000 0 2 0 2  1.512  1.512  16.00    0.00     0.00    0.00   1   18.00     0    0    0    11   0.0  1   1    7    0   0.000    0.000    0.000  1
  5   1    1  1 0 2     4  16   101  160  160     0.00000   1.90061 2.57778e-03  1326  2305   0.00  -0.00   0.00   23.71   -0.64  -11.58 3.000 0.000 0 2 0 2  1.512  1.512  16.00    0.00     0.00    0.00   1   18.00     0    0    0    11   0.0  1   1    7    0   0.000    0.000    0.000  1
  6   1    1  1 0 2     5  16   101  160  160     0.00000   1.90061 2.57778e-03  1161  2019   0.00  -0.00   0.00   23.71   -0.64  -14.58 3.000 0.000 0 2 0 2  1.512  1.512  16.00    0.00     0.00    0.00   1   18.00     0    0    0    11   0.0  1   1    7    0   0.000    0.000    0.000  1
  1   1    1  1 3 2     6  16   101  160  160 -3142.00000   1.53455 6.51740e+02     0  6284   0.00  -0.00   0.00   23.71   -0.64    0.42 3.000 0.000 0 2 0 2  1.512  1.512  16.00    0.00     0.00    0.00   1   18.00     0    0    0    11   0.0  1   1    7    0   0.000    0.000    0.000  1
  2   1    1  1 3 2     7  16   101  160  160 -3142.00000   1.53455 6.51740e+02     0  6284   0.00  -0.00   0.00   23.71   -0.64   -2.58 3.000 0.000 0 2 0 2  1.512  1.512  16.00    0.00     0.00    0.00   1   18.00     0    0    0    11   0.0  1   1    7    0   0.000    0.000    0.000  1
  3   1    1  1 3 2     8  16   101  160  160 -3142.00000   1.53455 6.51740e+02     0  6284   0.00  -0.00   0.00   23.71   -0.64   -5.58 3.000 0.000 0 2 0 2  1.512  1.512  16.00    0.00     0.00    0.00   1   18.00     0    0    0    11   0.0  1   1    7    0   0.000    0.000    0.000  1
  4   1    1  1 3 2     9  16   101  160  160 -3142.00000   1.53455 6.51740e+02     0  6284   0.00  -0.00   0.00   23.71   -0.64   -8.58 3.000 0.000 0 2 0 2  1.512  1.512  16.00    0.00     0.00    0.00   1   18.00     0    0    0    11   0.0  1   1    7    0   0.000    0.000    0.000  1
  5   1    1  1 3 2    10  16   101  160  160 -3142.00000   1.53455 6.51740e+02     0  6284   0.00  -0.00   0.00   23.71   -0.64  -11.58 3.000 0.000 0 2 0 2  1.512  1.512  16.00    0.00     0.00    0.00   1   18.00     0    0    0    11   0.0  1   1    7    0   0.000    0.000    0.000  1
  6   1    1  1 3 2    11  16   101  160  160 -3142.00000   1.53455 6.51740e+02     0  6284   0.00  -0.00   0.00   23.71   -0.64  -14.58 3.000 0.000 0 2 0 2  1.512  1.512  16.00    0.00     0.00    0.00   1   18.00     0    0    0    11   0.0  1   1    7    0   0.000    0.000    0.000  1
  1   1    2  1 0 2    12  16   101  160  160     0.00000   1.90061 2.57778e-03  1746  3036   0.00  -0.00   0.00   23.71   -0.64    0.42 3.000 0.000 0 2 0 2  1.512  1.512  16.00    1.98     0.00    0.00   1   18.00     0    0    0    11   0.0  1   1    7    0   0.000    0.000    0.000  1
  2   1    2  1 0 2    13  16   101  160  160     0.00000   1.90061 2.57778e-03  1673  2908   0.00  -0.00   0.00   23.71   -0.64   -2.58 3.000 0.000 0 2 0 2  1.512  1.512  16.00    1.98     0.00    0.00   1   18.00     0    0    0    11   0.0  1   1    7    0   0.000    0.000    0.000  1
  3   1    2  1 0 2    14  16   101  160  160     0.00000   1.90061 2.57778e-03  1861  3234   0.00  -0.00   0.00   23.71   -0.64   -5.58 3.000 0.000 0 2 0 2  1.512  1.512  16.00    1.98     0.00    0.00   1   18.00     0    0    0    11   0.0  1   1    7    0   0.000    0.000    0.000  1
  4   1    2  1 0 2    15  16   101  160  160     0.00000   1.90061 2.57778e-03  2083  3621   0.00  -0.00   0.00   23.71   -0.64   -8.58 3.000 0.000 0 2 0 2  1.512  1.512  16.00    1.98     0.00    0.00   1   18.00     0    0    0    11   0.0  1   1    7    0   0.000    0.000    0.000  1
  5   1    2  1 0 2    16  16   101  160  160     0.00000   1.90061 2.57778e-03  1731  3010   0.00  -0.00   0.00   23.71   -0.64  -11.58 3.000 0.000 0 2 0 2  1.512  1.512  16.00    1.98     0.00    0.00   1   18.00     0    0    0    11   0.0  1   1    7    0   0.000    0.000    0.000  1
  6   1    2  1 0 2    17  16   101  160  160     0.00000   1.90061 2.57778e-03  1410  2451   0.00  -0.00   0.00   23.71   -0.64  -14.58 3.000 0.000 0 2 0 2  1.512  1.512  16.00    1.98     0.00    0.00   1   18.00     0    0    0    11   0.0  1   1    7    0   0.000    0.000    0.000  1
  1   1    2  1 3 2    18  16   101  160  160 -3142.00000   1.53455 6.51740e+02     0  6284   0.00  -0.00   0.00   23.71   -0.64    0.42 3.000 0.000 0 2 0 2  1.512  1.512  16.00    1.98     0.00    0.00   1   18.00     0    0    0    11   0.0  1   1    7    0   0.000    0.000    0.000  1
  2   1    2  1 3 2    19  16   101  160  160 -3142.00000   1.53455 6.51740e+02     0  6284   0.00  -0.00   0.00   23.71   -0.64   -2.58 3.000 0.000 0 2 0 2  1.512  1.512  16.00    1.98     0.00    0.00   1   18.00     0    0    0    11   0.0  1   1    7    0   0.000    0.000    0.000  1
  3   1    2  1 3 2    20  16   101  160  160 -3142.00000   1.53455 6.51740e+02     0  6284   0.00  -0.00   0.00   23.71   -0.64   -5.58 3.000 0.000 0 2 0 2  1.512  1.512  16.00    1.98     0.00    0.00   1   18.00     0    0    0    11   0.0  1   1    7    0   0.000    0.000    0.000  1
  4   1    2  1 3 2    21  16   101  160  160 -3142.00000   1.53455 6.51740e+02     0  6284   0.00  -0.00   0.00   23.71   -0.64   -8.58 3.000 0.000 0 2 0 2  1.512  1.512  16.00    1.98     0.00    0.00   1   18.00     0    0    0    11   0.0  1   1    7    0   0.000    0.000    0.000  1
  5   1    2  1 3 2    22  16   101  160  160 -3142.00000   1.53455 6.51740e+02     0  6284   0.00  -0.00   0.00   23.71   -0.64  -11.58 3.000 0.000 0 2 0 2  1.512  1.512  16.00    1.98     0.00    0.00   1   18.00     0    0    0    11   0.0  1   1    7    0   0.000    0.000    0.000  1
  6   1    2  1 3 2    23  16   101  160  160 -3142.00000   1.53455 6.51740e+02     0  6284   0.00  -0.00   0.00   23.71   -0.64  -14.58 3.000 0.000 0 2 0 2  1.512  1.512  16.00    1.98     0.00    0.00   1   18.00     0    0    0    11   0.0  1   1    7    0   0.000    0.000    0.000  1
  1   1    3  1 0 2    24  16   101  160  160     0.00000   1.90061 2.57778e-03  1709  2971   0.00  -0.00   0.00   23.71   -0.64    0.42 3.000 0.000 0 2 0 2  1.512  1.512  16.00    3.59     0.00    0.00   1   18.00     0    0    0    11   0.0  1   1    7    0   0.000    0.000    0.000  1
  2   1    3  1 0 2    25  16   101  160  160     0.00000   1.90061 2.57778e-03  1648  2864   0.00  -0.00   0.00   23.71   -0.64   -2.58 3.000 0.000 0 2 0 2  1.512  1.512  16.00    3.59     0.00    0.00   1   18.00     0    0    0    11   0.0  1   1    7    0   0.000    0.000    0.000  1
  3   1    3  1 0 2    26  16   101  160  160     0.00000   1.90061 2.57778e-03  1895  3293   0.00  -0.00   0.00   23.71   -0.64   -5.58 3.000 0.000 0 2 0 2  1.512  1.512  16.00    3.59     0.00    0.00   1   18.00     0    0    0    11   0.0  1   1    7    0   0.000    0.000    0.000  1
  4   1    3  1 0 2    27  16   101  160  160     0.00000   1.90061 2.57778e-03  2130  3703   0.00  -0.00   0.00   23.71   -0.64   -8.58 3.000 0.000 0 2 0 2  1.512  1.512  16.00    3.59     0.00    0.00   1   18.00     0    0    0    11   0.0  1   1    7    0   0.000    0.000    0.000  1
  5   1    3  1 0 2    28  16   101  160  160     0.00000   1.90061 2.57778e-03  1788  3108   0.00  -0.00   0.00   23.71   -0.64  -11.58 3.000 0.000 0 2 0 2  1.512  1.512  16.00    3.59     0.00    0.00   1   18.00     0    0    0    11   0.0  1   1    7    0   0.000    0.000    0.000  1
  6   1    3  1 0 2    29  16   101  160  160     0.00000   1.90061 2.57778e-03  1471  2556   0.00  -0.00   0.00   23.71   -0.64  -14.58 3.000 0.000 0 2 0 2  1.512  1.512  16.00    3.59     0.00    0.00   1   18.00     0    0    0    11   0.0  1   1    7    0   0.000    0.000    0.000  1
  1   1    3  1 3 2    30  16   101  160  160 -3142.00000   1.53455 6.51740e+02     0  6284   0.00  -0.00   0.00   23.71   -0.64    0.42 3.000 0.000 0 2 0 2  1.512  1.512  16.00    3.59     0.00    0.00   1   18.00     0    0    0    11   0.0  1   1    7    0   0.000    0.000    0.000  1
  2   1    3  1 3 2    31  16   101  160  160 -3142.00000   1.53455 6.51740e+02     0  6284   0.00  -0.00   0.00   23.71   -0.64   -2.58 3.000 0.000 0 2 0 2  1.512  1.512  16.00    3.59     0.00    0.00   1   18.00     0    0    0    11   0.0  1   1    7    0   0.000    0.000    0.000  1
  3   1    3  1 3 2    32  16   101  160  160 -3142.00000   1.53455 6.51740e+02     0  6284   0.00  -0.00   0.00   23.71   -0.64   -5.58 3.000 0.000 0 2 0 2  1.512  1.512  16.00    3.59     0.00    0.00   1   18.00     0    0    0    11   0.0  1   1    7    0   0.000    0.000    0.000  1
  4   1    3  1 3 2    33  16   101  160  160 -3142.00000   1.53455 6.51740e+02     0  6284   0.00  -0.00   0.00   23.71   -0.64   -8.58 3.000 0.000 0 2 0 2  1.512  1.512  16.00    3.59     0.00    0.00   1   18.00     0    0    0    11   0.0  1   1    7    0   0.000    0.000    0.000  1
  5   1    3  1 3 2    34  16   101  160  160 -3142.00000   1.53455 6.51740e+02     0  6284   0.00  -0.00   0.00   23.71   -0.64  -11.58 3.000 0.000 0 2 0 2  1.512  1.512  16.00    3.59     0.00    0.00   1   18.00     0    0    0    11   0.0  1   1    7    0   0.000    0.000    0.000  1
  6   1    3  1 3 2    35  16   101  160  160 -3142.00000   1.53455 6.51740e+02     0  6284   0.00  -0.00   0.00   23.71   -0.64  -14.58 3.000 0.000 0 2 0 2  1.512  1.512  16.00    3.59     0.00    0.00   1   18.00     0    0    0    11   0.0  1   1    7    0   0.000    0.000    0.000  1
  1   1    4  1 0 2    36  16   101  160  160     0.00000   1.90061 2.57778e-03  1719  2989   0.00  -0.00   0.00   23.71   -0.64    0.42 3.000 0.000 0 2 0 2  1.512  1.512  16.00    5.20     0.00    0.00   1   18.00     0    0    0    11   0.0  1   1    7    0   0.000    0.000    0.000  1
  2   1    4  1 0 2    37  16   101  160  160     0.00000   1.90061 2.57778e-03  1645  2859   0.00  -0.00   0.00   23.71   -0.64   -2.58 3.000 0.000 0 2 0 2  1.512  1.512  16.00    5.20     0.00    0.00   1   18.00     0    0    0    11   0.0  1   1    7    0   0.000    0.000    0.000  1
  3   1    4  1 0 2    38  16   101  160  160     0.00000   1.90061 2.57778e-03  1879  3266   0.00  -0.00   0.00   23.71   -0.64   -5.58 3.000 0.000 0 2 0 2  1.512  1.512  16.00    5.20     0.00    0.00   1   18.00     0    0    0    11   0.0  1   1    7    0   0.000    0.000    0.000  1
  4   1    4  1 0 2    39  16   101  160  160     0.00000   1.90061 2.57778e-03  2157  3749   0.00  -0.00   0.00   23.71   -0.64   -8.58 3.000 0.000 0 2 0 2  1.512  1.512  16.00    5.20     0.00    0.00   1   18.00     0    0    0    11   0.0  1   1    7    0   0.000    0.000    0.000  1
  5   1    4  1 0 2    40  16   101  160  160     0.00000   1.90061 2.57778e-03  1810  3147   0.00  -0.00   0.00   23.71   -0.64  -11.58 3.000 0.000 0 2 0 2  1.512  1.512  16.00    5.20     0.00    0.00   1   18.00     0    0    0    11   0.0  1   1    7    0   0.000    0.000    0.000  1
  6   1    4  1 0 2    41  16   101  160  160     0.00000   1.90061 2.57778e-03  1478  2570   0.00  -0.00   0.00   23.71   -0.64  -14.58 3.000 0.000 0 2 0 2  1.512  1.512  16.00    5.20     0.00    0.00   1   18.00     0    0    0    11   0.0  1   1    7    0   0.000    0.000    0.000  1
  1   1    4  1 3 2    42  16   101  160  160 -3142.00000   1.53455 6.51740e+02     0  6284   0.00  -0.00   0.00   23.71   -0.64    0.42 3.000 0.000 0 2 0 2  1.512  1.512  16.00    5.20     0.00    0.00   1   18.00     0    0    0    11   0.0  1   1    7    0   0.000    0.000    0.000  1
  2   1    4  1 3 2    43  16   101  160  160 -3142.00000   1.53455 6.51740e+02     0  6284   0.00  -0.00   0.00   23.71   -0.64   -2.58 3.000 0.000 0 2 0 2  1.512  1.512  16.00    5.20     0.00    0.00   1   18.00     0    0    0    11   0.0  1   1    7    0   0.000    0.000    0.000  1
  3   1    4  1 3 2    44  16   101  160  160 -3142.00000   1.53455 6.51740e+02     0  6284   0.00  -0.00   0.00   23.71   -0.64   -5.58 3.000 0.000 0 2 0 2  1.512  1.512  16.00    5.20     0.00    0.00   1   18.00     0    0    0    11   0.0  1   1    7    0   0.000    0.000    0.000  1
  4   1    4  1 3 2    45  16   101  160  160 -3142.00000   1.53455 6.51740e+02     0  6284   0.00  -0.00   0.00   23.71   -0.64   -8.58 3.000 0.000 0 2 0 2  1.512  1.512  16.00    5.20     0.00    0.00   1   18.00     0    0    0    11   0.0  1   1    7    0   0.000    0.000    0.000  1
  5   1    4  1 3 2    46  16   101  160  160 -3142.00000   1.53455 6.51740e+02     0  6284   0.00  -0.00   0.00   23.71   -0.64  -11.58 3.000 0.000 0 2 0 2  1.512  1.512  16.00    5.20     0.00    0.00   1   18.00     0    0    0    11   0.0  1   1    7    0   0.000    0.000    0.000  1
  6   1    4  1 3 2    47  16   101  160  160 -3142.00000   1.53455 6.51740e+02     0  6284   0.00  -0.00   0.00   23.71   -0.64  -14.58 3.000 0.000 0 2 0 2  1.512  1.512  16.00    5.20     0.00    0.00   1   18.00     0    0    0    11   0.0  1   1    7    0   0.000    0.000    0.000  1
  1   1    5  1 0 2    48  16   101  160  160     0.00000   1.90061 2.57778e-03  1723  2996   0.00  -0.00   0.00   23.71   -0.64    0.42 3.000 0.000 0 2 0 2  1.512  1.512  16.00    6.80     0.00    0.00   1   18.00     0    0    0    11   0.0  1   1    7    0   0.000    0.000    0.000  1
  2   1    5  1 0 2    49  16   101  160  160     0.00000   1.90061 2.57778e-03  1648  2866   0.00  -0.00   0.00   23.71   -0.64   -2.58 3.000 0.000 0 2 0 2  1.512  1.512  16.00    6.80     0.00    0.00   1   18.00     0    0    0    11   0.0  1   1    7    0   0.000    0.000    0.000  1
  3   1    5  1 0 2    50  16   101  160  160     0.00000   1.90061 2.57778e-03  1875  3259   0.00  -0.00   0.00   23.71   -0.64   -5.58 3.000 0.000 0 2 0 2  1.512  1.512  16.00    6.80     0.00    0.00   1   18.00     0    0    0    11   0.0  1   1    7    0   0.000    0.000    0.000  1
  4   1    5  1 0 2    51  16   101  160  160     0.00000   1.90061 2.57778e-03  2146  3731   0.00  -0.00   0.00   23.71   -0.64   -8.58 3.000 0.000 0 2 0 2  1.512  1.512  16.00    6.80     0.00    0.00   1   18.00     0    0    0    11   0.0  1   1    7    0   0.000    0.000    0.000  1
  5   1    5  1 0 2    52  16   101  160  160     0.00000   1.90061 2.57778e-03  1820  3164   0.00  -0.00   0.00   23.71   -0.64  -11.58 3.000 0.000 0 2 0 2  1.512  1.512  16.00    6.80     0.00    0.00   1   18.00     0    0    0    11   0.0  1   1    7    0   0.000    0.000    0.000  1
  6   1    5  1 0 2    53  16   101  160  160     0.00000   1.90061 2.57778e-03  1500  2608   0.00  -0.00   0.00   23.71   -0.64  -14.58 3.000 0.000 0 2 0 2  1.512  1.512  16.00    6.80     0.00    0.00   1   18.00     0    0    0    11   0.0  1   1    7    0   0.000    0.000    0.000  1
  1   1    5  1 3 2    54  16   101  160  160 -3142.00000   1.53455 6.51740e+02     0  6284   0.00  -0.00   0.00   23.71   -0.64    0.42 3.000 0.000 0 2 0 2  1.512  1.512  16.00    6.80     0.00    0.00   1   18.00     0    0    0    11   0.0  1   1    7    0   0.000    0.000    0.000  1
  2   1    5  1 3 2    55  16   101  160  160 -3142.00000   1.53455 6.51740e+02     0  6284   0.00  -0.00   0.00   23.71   -0.64   -2.58 3.000 0.000 0 2 0 2  1.512  1.512  16.00    6.80     0.00    0.00   1   18.00     0    0    0    11   0.0  1   1    7    0   0.000    0.000    0.000  1
  3   1    5  1 3 2    56  16   101  160  160 -3142.00000   1.53455 6.51740e+02     0  6284   0.00  -0.00   0.00   23.71   -0.64   -5.58 3.000 0.000 0 2 0 2  1.512  1.512  16.00    6.80     0.00    0.00   1   18.00     0    0    0    11   0.0  1   1    7    0   0.000    0.000    0.000  1
  4   1    5  1 3 2    57  16   101  160  160 -3142.00000   1.53455 6.51740e+02     0  6284   0.00  -0.00   0.00   23.71   -0.64   -8.58 3.000 0.000 0 2 0 2  1.512  1.512  16.00    6.80     0.00    0.00   1   18.00     0    0    0    11   0.0  1   1    7    0   0.000    0.000    0.000  1
  5   1    5  1 3 2    58  16   101  160  160 -3142.00000   1.53455 6.51740e+02     0  6284   0.00  -0.00   0.00   23.71   -0.64  -11.58 3.000 0.000 0 2 0 2  1.512  1.512  16.00    6.80     0.00    0.00   1   18.00     0    0    0    11   0.0  1   1    7    0   0.000    0.000    0.000  1
  6   1    5  1 3 2    59  16   101  160  160 -3142.00000   1.53455 6.51740e+02     0  6284   0.00  -0.00   0.00   23.71   -0.64  -14.58 3.000 0.000 0 2 0 2  1.512  1.512  16.00    6.80     0.00    0.00   1   18.00     0    0    0    11   0.0  1   1    7    0   0.000    0.000    0.000  1
  1   1    6  1 0 2    60  16   101  160  160     0.00000   1.90061 2.57778e-03  1741  3026   0.00  -0.00   0.00   23.71   -0.64    0.42 3.000 0.000 0 2 0 2  1.512  1.512  16.00    8.41     0.00    0.00   1   18.00     0    0    0    11   0.0  1   1    7    0   0.000    0.000    0.000  1
  2   1    6  1 0 2    61  16   101  160  160     0.00000   1.90061 2.57778e-03  1637  2845   0.00  -0.00   0.00   23.71   -0.64   -2.58 3.000 0.000 0 2 0 2  1.512  1.512  16.00    8.41     0.00    0.00   1   18.00     0    0    0    11   0.0  1   1    7    0   0.000    0.000    0.000  1
  3   1    6  1 0 2    62  16   101  160  160     0.00000   1.90061 2.57778e-03  1861  3234   0.00  -0.00   0.00   23.71   -0.64   -5.58 3.000 0.000 0 2 0 2  1.512  1.512  16.00    8.41     0.00    0.00   1   18.00     0    0    0    11   0.0  1   1    7    0   0.000    0.000    0.000  1
  4   1    6  1 0 2    63  16   101  160  160     0.00000   1.90061 2.57778e-03  2156  3748   0.00  -0.00   0.00   23.71   -0.64   -8.58 3.000 0.000 0 2 0 2  1.512  1.512  16.00    8.41     0.00    0.00   1   18.00     0    0    0    11   0.0  1   1    7    0   0.000    0.000    0.000  1
  5   1    6  1 0 2    64  16   101  160  160     0.00000   1.90061 2.57778e-03  1833  3187   0.00  -0.00   0.00   23.71   -0.64  -11.58 3.000 0.000 0 2 0 2  1.512  1.512  16.00    8.41     0.00    0.00   1   18.00     0    0    0    11   0.0  1   1    7    0   0.000    0.000    0.000  1
  6   1    6  1 0 2    65  16   101  160  160     0.00000   1.90061 2.57778e-03  1504  2615   0.00  -0.00   0.00   23.71   -0.64  -14.58 3.000 0.000 0 2 0 2  1.512  1.512  16.00    8.41     0.00    0.00   1   18.00     0    0    0    11   0.0  1   1    7    0   0.000    0.000    0.000  1
  1   1    6  1 3 2    66  16   101  160  160 -3142.00000   1.53455 6.51740e+02     0  6284   0.00  -0.00   0.00   23.71   -0.64    0.42 3.000 0.000 0 2 0 2  1.512  1.512  16.00    8.41     0.00    0.00   1   18.00     0    0    0    11   0.0  1   1    7    0   0.000    0.000    0.000  1
  2   1    6  1 3 2    67  16   101  160  160 -3142.00000   1.53455 6.51740e+02     0  6284   0.00  -0.00   0.00   23.71   -0.64   -2.58 3.000 0.000 0 2 0 2  1.512  1.512  16.00    8.41     0.00    0.00   1   18.00     0    0    0    11   0.0  1   1    7    0   0.000    0.000    0.000  1
  3   1    6  1 3 2    68  16   101  160  160 -3142.00000   1.53455 6.51740e+02     0  6284   0.00  -0.00   0.00   23.71   -0.64   -5.58 3.000 0.000 0 2 0 2  1.512  1.512  16.00    8.41     0.00    0.00   1   18.00     0    0    0    11   0.0  1   1    7    0   0.000    0.000    0.000  1
  4   1    6  1 3 2    69  16   101  160  160 -3142.00000   1.53455 6.51740e+02     0  6284   0.00  -0.00   0.00   23.71   -0.64   -8.58 3.000 0.000 0 2 0 2  1.512  1.512  16.00    8.41     0.00    0.00   1   18.00     0    0    0    11   0.0  1   1    7    0   0.000    0.000    0.000  1
  5   1    6  1 3 2    70  16   101  160  160 -3142.00000   1.53455 6.51740e+02     0  6284   0.00  -0.00   0.00   23.71   -0.64  -11.58 3.000 0.000 0 2 0 2  1.512  1.512  16.00    8.41     0.00    0.00   1   18.00     0    0    0    11   0.0  1   1    7    0   0.000    0.000    0.000  1
  6   1    6  1 3 2    71  16   101  160  160 -3142.00000   1.53455 6.51740e+02     0  6284   0.00  -0.00   0.00   23.71   -0.64  -14.58 3.000 0.000 0 2 0 2  1.512  1.512  16.00    8.41     0.00    0.00   1   18.00     0    0    0    11   0.0  1   1    7    0   0.000    0.000    0.000  1
  1   1    7  1 0 2    72  16   101  160  160     0.00000   1.90061 2.57778e-03  1727  3002   0.00  -0.00   0.00   23.71   -0.64    0.42 3.000 0.000 0 2 0 2  1.512  1.512  16.00   10.02     0.00    0.00   1   18.00     0    0    0    11   0.0  1   1    7    0   0.000    0.000    0.000  1
  2   1    7  1 0 2    73  16   101  160  160     0.00000   1.90061 2.57778e-03  1654  2874   0.00  -0.00   0.00   23.71   -0.64   -2.58 3.000 0.000 0 2 0 2  1.512  1.512  16.00   10.02     0.00    0.00   1   18.00     0    0    0    11   0.0  1   1    7    0   0.000    0.000    0.000  1
  3   1    7  1 0 2    74  16   101  160  160     0.00000   1.90061 2.57778e-03  1868  3247   0.00  -0.00   0.00   23.71   -0.64   -5.58 3.000 0.000 0 2 0 2  1.512  1.512  16.00   10.02     0.00    0.00   1   18.00     0    0    0    11   0.0  1   1    7    0   0.000    0.000    0.000  1
  4   1    7  1 0 2    75  16   101  160  160     0.00000   1.90061 2.57778e-03  2136  3713   0.00  -0.00   0.00   23.71   -0.64   -8.58 3.000 0.000 0 2 0 2  1.512  1.512  16.00   10.02     0.00    0.00   1   18.00     0    0    0    11   0.0  1   1    7    0   0.000    0.000    0.000  1
  5   1    7  1 0 2    76  16   101  160  160     0.00000   1.90061 2.57778e-03  1814  3153   0.00  -0.00   0.00   23.71   -0.64  -11.58 3.000 0.000 0 2 0 2  1.512  1.512  16.00   10.02     0.00    0.00   1   18.00     0    0    0    11   0.0  1   1    7    0   0.000    0.000    0.000  1
  6   1    7  1 0 2    77  16   101  160  160     0.00000   1.90061 2.57778e-03  1490  2591   0.00  -0.00   0.00   23.71   -0.64  -14.58 3.000 0.000 0 2 0 2  1.512  1.512  16.00   10.02     0.00    0.00   1   18.00     0    0    0    11   0.0  1   1    7    0   0.000    0.000    0.000  1
  1   1    7  1 3 2    78  16   101  160  160 -3142.00000   1.53455 6.51740e+02     0  6284   0.00  -0.00   0.00   23.71   -0.64    0.42 3.000 0.000 0 2 0 2  1.512  1.512  16.00   10.02     0.00    0.00   1   18.00     0    0    0    11   0.0  1   1    7    0   0.000    0.000    0.000  1
  2   1    7  1 3 2    79  16   101  160  160 -3142.00000   1.53455 6.51740e+02     0  6284   0.00  -0.00   0.00   23.71   -0.64   -2.58 3.000 0.000 0 2 0 2  1.512  1.512  16.00   10.02     0.00    0.00   1   18.00     0    0    0    11   0.0  1   1    7    0   0.000    0.000    0.000  1
  3   1    7  1 3 2    80  16   101  160  160 -3142.00000   1.53455 6.51740e+02     0  6284   0.00  -0.00   0.00   23.71   -0.64   -5.58 3.000 0.000 0 2 0 2  1.512  1.512  16.00   10.02     0.00    0.00   1   18.00     0    0    0    11   0.0  1   1    7    0   0.000    0.000    0.000  1
  4   1    7  1 3 2    81  16   101  160  160 -3142.00000   1.53455 6.51740e+02     0  6284   0.00  -0.00   0.00   23.71   -0.64   -8.58 3.000 0.000 0 2 0 2  1.512  1.512  16.00   10.02     0.00    0.00   1   18.00     0    0    0    11   0.0  1   1    7    0   0.000    0.000    0.000  1
  5   1    7  1 3 2    82  16   101  160  160 -3142.00000   1.53455 6.51740e+02     0  6284   0.00  -0.00   0.00   23.71   -0.64  -11.58 3.000 0.000 0 2 0 2  1.512  1.512  16.00   10.02     0.00    0.00   1   18.00     0    0    0    11   0.0  1   1    7    0   0.000    0.000    0.000  1
  6   1    7  1 3 2    83  16   101  160  160 -3142.00000   1.53455 6.51740e+02     0  6284   0.00  -0.00   0.00   23.71   -0.64  -14.58 3.000 0.000 0 2 0 2  1.512  1.512  16.00   10.02     0.00    0.00   1   18.00     0    0    0    11   0.0  1   1    7    0   0.000    0.000    0.000  1
  1   1    8  1 0 2    84  16   101  160  160     0.00000   1.90061 2.57778e-03  1738  3022   0.00  -0.00   0.00   23.71   -0.64    0.42 3.000 0.000 0 2 0 2  1.512  1.512  16.00   11.63     0.00    0.00   1   18.00     0    0    0    11   0.0  1   1    7    0   0.000    0.000    0.000  1
